% Encoder logfile
% 1 	Time (sec)
% 2,3 	enc left, right
% 4,5 	encoder change left, right
1709309737.4797 0 0 0 0
1709309737.4885 0 0 0 0
1709309737.4979 0 0 0 0
1709309737.5052 0 0 0 0
1709309737.5149 0 0 0 0
1709309737.5217 0 0 0 0
1709309737.5275 0 0 0 0
1709309737.5348 0 0 0 0
1709309737.5432 0 0 0 0
1709309737.5504 0 0 0 0
1709309737.5590 0 0 0 0
1709309737.5669 0 0 0 0
1709309737.5742 0 0 0 0
1709309737.5824 0 0 0 0
1709309737.5911 0 0 0 0
1709309737.5982 0 0 0 0
1709309737.6063 6 6 6 6
1709309737.6145 16 16 10 10
1709309737.6218 27 24 11 8
1709309737.6299 31 29 4 5
1709309737.6389 35 35 4 6
1709309737.6460 44 45 9 10
1709309737.6542 54 56 10 11
1709309737.6620 67 71 13 15
1709309737.6705 78 84 11 13
1709309737.6782 90 96 12 12
1709309737.6865 102 110 12 14
1709309737.6942 117 122 15 12
1709309737.7018 130 138 13 16
1709309737.7100 142 152 12 14
1709309737.7183 158 168 16 16
1709309737.7260 170 183 12 15
1709309737.7343 185 201 15 18
1709309737.7423 201 217 16 16
1709309737.7503 218 232 17 15
1709309737.7585 232 246 14 14
1709309737.7657 248 262 16 16
1709309737.7742 263 277 15 15
1709309737.7838 281 295 18 18
1709309737.7904 298 313 17 18
1709309737.7982 317 331 19 18
1709309737.8064 333 342 16 11
1709309737.8147 346 360 13 18
1709309737.8224 359 381 13 21
1709309737.8307 377 397 18 16
1709309737.8385 398 415 21 18
1709309737.8463 416 435 18 20
1709309737.8545 430 451 14 16
1709309737.8628 445 469 15 18
1709309737.8708 463 490 18 21
1709309737.8787 486 508 23 18
1709309737.8859 505 525 19 17
1709309737.8943 518 537 13 12
1709309737.9026 533 550 15 13
1709309737.9108 552 568 19 18
1709309737.9187 570 587 18 19
1709309737.9258 588 602 18 15
1709309737.9342 605 616 17 14
1709309737.9419 622 633 17 17
1709309737.9505 638 651 16 18
1709309737.9588 653 667 15 16
1709309737.9663 665 686 12 19
1709309737.9746 680 703 15 17
1709309737.9819 698 718 18 15
1709309737.9907 714 735 16 17
1709309737.9982 727 752 13 17
1709309738.0060 741 767 14 15
1709309738.0144 759 787 18 20
1709309738.0220 773 802 14 15
1709309738.0306 790 816 17 14
1709309738.0389 805 826 15 10
1709309738.0464 819 844 14 18
1709309738.0550 835 859 16 15
1709309738.0619 852 875 17 16
1709309738.0702 867 889 15 14
1709309738.0786 878 905 11 16
1709309738.0864 892 924 14 19
1709309738.0938 908 940 16 16
1709309738.1023 924 952 16 12
1709309738.1103 939 969 15 17
1709309738.1186 950 988 11 19
1709309738.1260 962 1003 12 15
1709309738.1340 976 1021 14 18
1709309738.1431 990 1036 14 15
1709309738.1503 1007 1052 17 16
1709309738.1583 1024 1068 17 16
1709309738.1669 1037 1085 13 17
1709309738.1742 1051 1101 14 16
1709309738.1821 1065 1118 14 17
1709309738.1898 1079 1137 14 19
1709309738.1982 1093 1156 14 19
1709309738.2063 1106 1170 13 14
1709309738.2147 1123 1189 17 19
1709309738.2218 1140 1207 17 18
1709309738.2308 1155 1222 15 15
1709309738.2386 1167 1239 12 17
1709309738.2458 1182 1256 15 17
1709309738.2540 1200 1274 18 18
1709309738.2623 1216 1288 16 14
1709309738.2708 1231 1304 15 16
1709309738.2784 1245 1322 14 18
1709309738.2866 1260 1340 15 18
1709309738.2946 1271 1352 11 12
1709309738.3025 1284 1365 13 13
1709309738.3108 1300 1382 16 17
1709309738.3181 1314 1398 14 16
1709309738.3260 1330 1416 16 18
1709309738.3344 1344 1434 14 18
1709309738.3426 1358 1451 14 17
1709309738.3506 1374 1467 16 16
1709309738.3579 1390 1481 16 14
1709309738.3665 1406 1496 16 15
1709309738.3743 1419 1515 13 19
1709309738.3826 1433 1531 14 16
1709309738.3905 1453 1549 20 18
1709309738.3987 1468 1564 15 15
1709309738.4058 1480 1582 12 18
1709309738.4141 1495 1599 15 17
1709309738.4222 1512 1615 17 16
1709309738.4304 1530 1631 18 16
1709309738.4391 1546 1653 16 22
1709309738.4461 1560 1669 14 16
1709309738.4543 1575 1680 15 11
1709309738.4625 1590 1695 15 15
1709309738.4698 1608 1714 18 19
1709309738.4782 1624 1729 16 15
1709309738.4865 1638 1741 14 12
1709309738.4941 1654 1755 16 14
1709309738.5033 1673 1776 19 21
1709309738.5107 1689 1792 16 16
1709309738.5187 1703 1808 14 16
1709309738.5259 1717 1821 14 13
1709309738.5343 1735 1832 18 11
1709309738.5419 1754 1845 19 13
1709309738.5508 1770 1862 16 17
1709309738.5583 1784 1883 14 21
1709309738.5661 1799 1900 15 17
1709309738.5747 1816 1915 17 15
1709309738.5822 1834 1927 18 12
1709309738.5906 1851 1939 17 12
1709309738.5986 1866 1958 15 19
1709309738.6058 1881 1976 15 18
1709309738.6143 1898 1990 17 14
1709309738.6218 1916 2000 18 10
1709309738.6300 1934 2014 18 14
1709309738.6392 1951 2028 17 14
1709309738.6465 1969 2045 18 17
1709309738.6538 1988 2056 19 11
1709309738.6627 2004 2070 16 14
1709309738.6698 2020 2082 16 12
1709309738.6780 2039 2099 19 17
1709309738.6860 2056 2112 17 13
1709309738.6938 2074 2124 18 12
1709309738.7022 2092 2138 18 14
1709309738.7103 2109 2155 17 17
1709309738.7180 2125 2169 16 14
1709309738.7264 2144 2182 19 13
1709309738.7347 2161 2197 17 15
1709309738.7419 2181 2210 20 13
1709309738.7505 2196 2226 15 16
1709309738.7586 2213 2236 17 10
1709309738.7659 2230 2249 17 13
1709309738.7742 2247 2265 17 16
1709309738.7821 2265 2281 18 16
1709309738.7900 2281 2294 16 13
1709309738.7980 2299 2309 18 15
1709309738.8060 2314 2323 15 14
1709309738.8148 2330 2334 16 11
1709309738.8219 2347 2350 17 16
1709309738.8298 2368 2362 21 12
1709309738.8389 2385 2378 17 16
1709309738.8462 2401 2394 16 16
1709309738.8540 2418 2408 17 14
1709309738.8634 2436 2421 18 13
1709309738.8706 2455 2431 19 10
1709309738.8786 2475 2451 20 20
1709309738.8861 2490 2466 15 15
1709309738.8941 2503 2475 13 9
1709309738.9020 2521 2486 18 11
1709309738.9104 2542 2499 21 13
1709309738.9188 2561 2514 19 15
1709309738.9262 2575 2529 14 15
1709309738.9346 2593 2543 18 14
1709309738.9418 2615 2554 22 11
1709309738.9499 2631 2571 16 17
1709309738.9587 2647 2588 16 17
1709309738.9658 2664 2603 17 15
1709309738.9747 2684 2614 20 11
1709309738.9818 2702 2627 18 13
1709309738.9898 2717 2643 15 16
1709309738.9981 2730 2659 13 16
1709309739.0058 2746 2676 16 17
1709309739.0144 2762 2690 16 14
1709309739.0225 2780 2704 18 14
1709309739.0307 2799 2721 19 17
1709309739.0384 2813 2738 14 17
1709309739.0462 2830 2756 17 18
1709309739.0544 2847 2771 17 15
1709309739.0619 2863 2781 16 10
1709309739.0699 2879 2800 16 19
1709309739.0781 2895 2817 16 17
1709309739.0866 2913 2834 18 17
1709309739.0939 2930 2846 17 12
1709309739.1021 2947 2858 17 12
1709309739.1104 2961 2872 14 14
1709309739.1181 2976 2892 15 20
1709309739.1263 2993 2908 17 16
1709309739.1344 3008 2921 15 13
1709309739.1419 3025 2933 17 12
1709309739.1501 3041 2951 16 18
1709309739.1583 3056 2963 15 12
1709309739.1665 3071 2977 15 14
1709309739.1748 3085 2996 14 19
1709309739.1819 3101 3013 16 17
1709309739.1904 3117 3028 16 15
1709309739.1988 3133 3041 16 13
1709309739.2060 3147 3056 14 15
1709309739.2148 3159 3075 12 19
1709309739.2229 3175 3093 16 18
1709309739.2303 3192 3110 17 17
1709309739.2388 3211 3126 19 16
1709309739.2461 3222 3142 11 16
1709309739.2545 3235 3161 13 19
1709309739.2627 3248 3179 13 18
1709309739.2701 3266 3197 18 18
1709309739.2778 3281 3215 15 18
1709309739.2858 3296 3230 15 15
1709309739.2938 3310 3246 14 16
1709309739.3021 3324 3264 14 18
1709309739.3103 3340 3285 16 21
1709309739.3187 3355 3300 15 15
1709309739.3259 3368 3315 13 15
1709309739.3338 3383 3334 15 19
1709309739.3420 3397 3355 14 21
1709309739.3504 3411 3369 14 14
1709309739.3582 3429 3384 18 15
1709309739.3666 3445 3402 16 18
1709309739.3739 3457 3421 12 19
1709309739.3828 3470 3438 13 17
1709309739.3900 3483 3452 13 14
1709309739.3984 3499 3472 16 20
1709309739.4061 3511 3489 12 17
1709309739.4144 3525 3507 14 18
1709309739.4218 3540 3523 15 16
1709309739.4298 3553 3544 13 21
1709309739.4389 3568 3562 15 18
1709309739.4463 3582 3576 14 14
1709309739.4546 3595 3593 13 17
1709309739.4620 3608 3611 13 18
1709309739.4702 3625 3629 17 18
1709309739.4782 3641 3643 16 14
1709309739.4865 3652 3661 11 18
1709309739.4944 3664 3682 12 21
1709309739.5023 3679 3703 15 21
1709309739.5106 3694 3716 15 13
1709309739.5179 3711 3728 17 12
1709309739.5259 3726 3745 15 17
1709309739.5342 3737 3765 11 20
1709309739.5421 3751 3786 14 21
1709309739.5501 3762 3803 11 17
1709309739.5584 3775 3818 13 15
1709309739.5658 3792 3833 17 15
1709309739.5747 3809 3853 17 20
1709309739.5831 3824 3873 15 20
1709309739.5907 3839 3890 15 17
1709309739.5988 3855 3901 16 11
1709309739.6060 3868 3918 13 17
1709309739.6142 3881 3940 13 22
1709309739.6221 3896 3957 15 17
1709309739.6303 3914 3970 18 13
1709309739.6393 3929 3986 15 16
1709309739.6459 3944 4001 15 15
1709309739.6541 3958 4018 14 17
1709309739.6625 3972 4039 14 21
1709309739.6703 3988 4055 16 16
1709309739.6787 4006 4067 18 12
1709309739.6860 4022 4081 16 14
1709309739.6944 4038 4099 16 18
1709309739.7027 4052 4115 14 16
1709309739.7098 4066 4128 14 13
1709309739.7187 4081 4145 15 17
1709309739.7263 4095 4160 14 15
1709309739.7347 4111 4178 16 18
1709309739.7422 4130 4191 19 13
1709309739.7505 4145 4207 15 16
1709309739.7582 4156 4222 11 15
1709309739.7668 4170 4240 14 18
1709309739.7740 4186 4259 16 19
1709309739.7822 4202 4273 16 14
1709309739.7899 4219 4284 17 11
1709309739.7984 4233 4301 14 17
1709309739.8059 4248 4320 15 19
1709309739.8145 4267 4339 19 19
1709309739.8220 4285 4352 18 13
1709309739.8302 4299 4362 14 10
1709309739.8386 4312 4374 13 12
1709309739.8468 4328 4396 16 22
1709309739.8540 4346 4414 18 18
1709309739.8628 4365 4426 19 12
1709309739.8701 4382 4438 17 12
1709309739.8784 4396 4453 14 15
1709309739.8864 4413 4471 17 18
1709309739.8946 4431 4487 18 16
1709309739.9019 4449 4500 18 13
1709309739.9099 4465 4515 16 15
1709309739.9182 4480 4528 15 13
1709309739.9266 4496 4542 16 14
1709309739.9347 4511 4559 15 17
1709309739.9436 4530 4574 19 15
1709309739.9499 4547 4591 17 17
1709309739.9578 4565 4606 18 15
1709309739.9667 4581 4616 16 10
1709309739.9739 4597 4631 16 15
1709309739.9818 4618 4646 21 15
1709309739.9906 4633 4662 15 16
1709309739.9988 4648 4675 15 13
1709309740.0065 4666 4693 18 18
1709309740.0148 4683 4710 17 17
1709309740.0219 4698 4723 15 13
1709309740.0298 4714 4735 16 12
1709309740.0384 4731 4749 17 14
1709309740.0460 4748 4762 17 13
1709309740.0538 4765 4776 17 14
1709309740.0627 4779 4794 14 18
1709309740.0698 4794 4806 15 12
1709309740.0787 4811 4822 17 16
1709309740.0859 4828 4838 17 16
1709309740.0939 4842 4856 14 18
1709309740.1021 4858 4866 16 10
1709309740.1108 4876 4875 18 9
1709309740.1184 4893 4895 17 20
1709309740.1258 4909 4914 16 19
1709309740.1344 4923 4929 14 15
1709309740.1428 4940 4939 17 10
1709309740.1498 4958 4957 18 18
1709309740.1582 4977 4977 19 20
1709309740.1660 4991 4988 14 11
1709309740.1740 5006 4999 15 11
1709309740.1823 5023 5014 17 15
1709309740.1902 5042 5032 19 18
1709309740.1981 5059 5050 17 18
1709309740.2064 5073 5065 14 15
1709309740.2144 5088 5078 15 13
1709309740.2222 5107 5097 19 19
1709309740.2304 5125 5113 18 16
1709309740.2394 5137 5127 12 14
1709309740.2464 5151 5145 14 18
1709309740.2538 5167 5162 16 17
1709309740.2622 5181 5176 14 14
1709309740.2706 5196 5192 15 16
1709309740.2782 5211 5209 15 17
1709309740.2867 5227 5227 16 18
1709309740.2943 5242 5244 15 17
1709309740.3032 5255 5261 13 17
1709309740.3105 5272 5276 17 15
1709309740.3186 5288 5291 16 15
1709309740.3268 5306 5310 18 19
1709309740.3341 5319 5326 13 16
1709309740.3428 5331 5338 12 12
1709309740.3500 5347 5355 16 17
1709309740.3586 5363 5369 16 14
1709309740.3668 5377 5382 14 13
1709309740.3739 5391 5401 14 19
1709309740.3822 5406 5417 15 16
1709309740.3907 5420 5432 14 15
1709309740.3987 5436 5448 16 16
1709309740.4059 5450 5467 14 19
1709309740.4147 5469 5484 19 17
1709309740.4219 5482 5497 13 13
1709309740.4302 5496 5510 14 13
1709309740.4385 5508 5530 12 20
1709309740.4467 5525 5550 17 20
1709309740.4538 5543 5567 18 17
1709309740.4627 5557 5581 14 14
1709309740.4706 5568 5593 11 12
1709309740.4788 5583 5611 15 18
1709309740.4866 5603 5630 20 19
1709309740.4944 5617 5650 14 20
1709309740.5027 5634 5663 17 13
1709309740.5105 5648 5675 14 12
1709309740.5188 5663 5694 15 19
1709309740.5261 5679 5713 16 19
1709309740.5340 5695 5730 16 17
1709309740.5419 5711 5742 16 12
1709309740.5501 5729 5758 18 16
1709309740.5585 5740 5775 11 17
1709309740.5658 5753 5791 13 16
1709309740.5740 5770 5811 17 20
1709309740.5820 5787 5828 17 17
1709309740.5900 5800 5844 13 16
1709309740.5984 5814 5858 14 14
1709309740.6058 5829 5877 15 19
1709309740.6140 5845 5894 16 17
1709309740.6221 5860 5910 15 16
1709309740.6298 5873 5925 13 15
1709309740.6386 5887 5940 14 15
1709309740.6458 5902 5957 15 17
1709309740.6547 5915 5974 13 17
1709309740.6627 5930 5986 15 12
1709309740.6699 5948 6003 18 17
1709309740.6787 5965 6024 17 21
1709309740.6859 5977 6039 12 15
1709309740.6938 5989 6054 12 15
1709309740.7027 6004 6068 15 14
1709309740.7108 6023 6088 19 20
1709309740.7180 6040 6108 17 20
1709309740.7259 6055 6122 15 14
1709309740.7342 6068 6137 13 15
1709309740.7421 6083 6155 15 18
1709309740.7500 6098 6170 15 15
1709309740.7582 6116 6186 18 16
1709309740.7665 6130 6201 14 15
1709309740.7738 6145 6218 15 17
1709309740.7826 6159 6235 14 17
1709309740.7907 6175 6250 16 15
1709309740.7987 6193 6265 18 15
1709309740.8062 6209 6281 16 16
1709309740.8147 6222 6297 13 16
1709309740.8224 6235 6316 13 19
1709309740.8307 6252 6332 17 16
1709309740.8387 6270 6346 18 14
1709309740.8468 6285 6361 15 15
1709309740.8542 6298 6378 13 17
1709309740.8625 6311 6398 13 20
1709309740.8703 6328 6407 17 9
1709309740.8787 6348 6419 20 12
1709309740.8861 6365 6440 17 21
1709309740.8944 6380 6456 15 16
1709309740.9026 6394 6471 14 15
1709309740.9108 6408 6487 14 16
1709309740.9186 6427 6505 19 18
1709309740.9268 6444 6521 17 16
1709309740.9339 6462 6537 18 16
1709309740.9422 6477 6554 15 17
1709309740.9504 6492 6570 15 16
1709309740.9585 6508 6582 16 12
1709309740.9658 6523 6598 15 16
1709309740.9739 6535 6618 12 20
1709309740.9819 6548 6637 13 19
1709309740.9902 6564 6650 16 13
1709309740.9984 6579 6668 15 18
1709309741.0066 6590 6685 11 17
1709309741.0143 6604 6706 14 21
1709309741.0233 6619 6724 15 18
1709309741.0304 6632 6738 13 14
1709309741.0387 6644 6756 12 18
1709309741.0458 6654 6776 10 20
1709309741.0540 6666 6797 12 21
1709309741.0628 6680 6815 14 18
1709309741.0707 6692 6834 12 19
1709309741.0778 6702 6857 10 23
1709309741.0866 6713 6879 11 22
1709309741.0944 6726 6895 13 16
1709309741.1025 6741 6910 15 15
1709309741.1102 6754 6932 13 22
1709309741.1181 6765 6949 11 17
1709309741.1263 6774 6968 9 19
1709309741.1340 6787 6990 13 22
1709309741.1428 6803 7009 16 19
1709309741.1499 6816 7026 13 17
1709309741.1585 6828 7045 12 19
1709309741.1661 6840 7064 12 19
1709309741.1744 6855 7082 15 18
1709309741.1825 6869 7100 14 18
1709309741.1903 6885 7119 16 19
1709309741.1985 6898 7134 13 15
1709309741.2062 6912 7150 14 16
1709309741.2145 6926 7172 14 22
1709309741.2227 6941 7190 15 18
1709309741.2306 6957 7204 16 14
1709309741.2394 6972 7223 15 19
1709309741.2467 6987 7240 15 17
1709309741.2543 7000 7256 13 16
1709309741.2626 7012 7272 12 16
1709309741.2698 7030 7288 18 16
1709309741.2786 7046 7300 16 12
1709309741.2867 7058 7315 12 15
1709309741.2945 7073 7332 15 17
1709309741.3024 7091 7344 18 12
1709309741.3106 7107 7356 16 12
1709309741.3179 7124 7371 17 15
1709309741.3266 7142 7387 18 16
1709309741.3348 7158 7400 16 13
1709309741.3426 7175 7414 17 14
1709309741.3504 7195 7428 20 14
1709309741.3586 7214 7441 19 13
1709309741.3668 7231 7453 17 12
1709309741.3746 7250 7467 19 14
1709309741.3836 7270 7480 20 13
1709309741.3903 7288 7490 18 10
1709309741.3981 7311 7503 23 13
1709309741.4063 7328 7515 17 12
1709309741.4145 7344 7524 16 9
1709309741.4223 7364 7536 20 12
1709309741.4303 7385 7549 21 13
1709309741.4392 7402 7563 17 14
1709309741.4459 7420 7577 18 14
1709309741.4541 7439 7591 19 14
1709309741.4624 7459 7602 20 11
1709309741.4698 7476 7616 17 14
1709309741.4788 7493 7631 17 15
1709309741.4859 7511 7643 18 12
1709309741.4943 7532 7656 21 13
1709309741.5024 7549 7669 17 13
1709309741.5107 7565 7683 16 14
1709309741.5183 7581 7697 16 14
1709309741.5267 7603 7714 22 17
1709309741.5338 7625 7729 22 15
1709309741.5422 7639 7741 14 12
1709309741.5504 7653 7753 14 12
1709309741.5586 7670 7768 17 15
1709309741.5661 7688 7784 18 16
1709309741.5747 7704 7801 16 17
1709309741.5818 7720 7815 16 14
1709309741.5901 7736 7829 16 14
1709309741.5982 7752 7840 16 11
1709309741.6063 7770 7857 18 17
1709309741.6138 7789 7876 19 19
1709309741.6219 7802 7890 13 14
1709309741.6305 7818 7901 16 11
1709309741.6389 7837 7916 19 15
1709309741.6459 7855 7935 18 19
1709309741.6539 7872 7950 17 15
1709309741.6626 7884 7963 12 13
1709309741.6708 7899 7976 15 13
1709309741.6779 7915 7995 16 19
1709309741.6866 7933 8014 18 19
1709309741.6943 7948 8027 15 13
1709309741.7018 7962 8041 14 14
1709309741.7106 7975 8058 13 17
1709309741.7187 7992 8078 17 20
1709309741.7261 8007 8095 15 17
1709309741.7348 8023 8107 16 12
1709309741.7434 8038 8122 15 15
1709309741.7507 8053 8138 15 16
1709309741.7585 8070 8158 17 20
1709309741.7668 8086 8172 16 14
1709309741.7740 8101 8186 15 14
1709309741.7818 8114 8202 13 16
1709309741.7904 8127 8219 13 17
1709309741.7987 8142 8233 15 14
1709309741.8065 8160 8250 18 17
1709309741.8147 8175 8269 15 19
1709309741.8218 8191 8286 16 17
1709309741.8306 8208 8300 17 14
1709309741.8394 8221 8313 13 13
1709309741.8466 8236 8332 15 19
1709309741.8539 8251 8354 15 22
1709309741.8621 8265 8369 14 15
1709309741.8703 8283 8381 18 12
1709309741.8778 8301 8395 18 14
1709309741.8860 8317 8412 16 17
1709309741.8948 8332 8429 15 17
1709309741.9028 8346 8443 14 14
1709309741.9099 8362 8459 16 16
1709309741.9181 8381 8476 19 17
1709309741.9267 8396 8488 15 12
1709309741.9342 8411 8503 15 15
1709309741.9420 8425 8520 14 17
1709309741.9498 8441 8535 16 15
1709309741.9580 8457 8550 16 15
1709309741.9658 8471 8566 14 16
1709309741.9748 8484 8581 13 15
1709309741.9818 8501 8594 17 13
1709309741.9906 8517 8613 16 19
1709309741.9984 8531 8626 14 13
1709309742.0065 8544 8641 13 15
1709309742.0146 8561 8662 17 21
1709309742.0222 8578 8678 17 16
1709309742.0304 8593 8691 15 13
1709309742.0391 8610 8704 17 13
1709309742.0458 8624 8722 14 18
1709309742.0540 8641 8740 17 18
1709309742.0620 8656 8753 15 13
1709309742.0707 8672 8766 16 13
1709309742.0778 8689 8782 17 16
1709309742.0859 8707 8802 18 20
1709309742.0943 8722 8817 15 15
1709309742.1034 8739 8832 17 15
1709309742.1105 8755 8848 16 16
1709309742.1181 8770 8867 15 19
1709309742.1262 8785 8883 15 16
1709309742.1343 8801 8896 16 13
1709309742.1427 8819 8911 18 15
1709309742.1506 8834 8929 15 18
1709309742.1578 8850 8948 16 19
1709309742.1667 8864 8965 14 17
1709309742.1738 8880 8977 16 12
1709309742.1822 8898 8992 18 15
1709309742.1906 8913 9011 15 19
1709309742.1986 8928 9029 15 18
1709309742.2067 8943 9044 15 15
1709309742.2145 8960 9060 17 16
1709309742.2227 8980 9074 20 14
1709309742.2300 8997 9087 17 13
1709309742.2385 9012 9104 15 17
1709309742.2468 9021 9121 9 17
1709309742.2540 9037 9134 16 13
1709309742.2618 9056 9152 19 18
1709309742.2700 9072 9168 16 16
1709309742.2783 9087 9180 15 12
1709309742.2858 9103 9195 16 15
1709309742.2947 9120 9212 17 17
1709309742.3018 9135 9228 15 16
1709309742.3107 9149 9242 14 14
1709309742.3178 9164 9258 15 16
1709309742.3261 9179 9274 15 16
1709309742.3348 9196 9286 17 12
1709309742.3426 9213 9298 17 12
1709309742.3508 9228 9317 15 19
1709309742.3585 9241 9334 13 17
1709309742.3668 9256 9347 15 13
1709309742.3738 9271 9360 15 13
1709309742.3827 9288 9381 17 21
1709309742.3903 9301 9398 13 17
1709309742.3984 9318 9412 17 14
1709309742.4061 9333 9425 15 13
1709309742.4142 9350 9441 17 16
1709309742.4221 9364 9460 14 19
1709309742.4298 9380 9480 16 20
1709309742.4385 9395 9493 15 13
1709309742.4467 9412 9503 17 10
1709309742.4543 9431 9520 19 17
1709309742.4632 9445 9536 14 16
1709309742.4699 9457 9554 12 18
1709309742.4787 9474 9571 17 17
1709309742.4867 9490 9584 16 13
1709309742.4944 9505 9600 15 16
1709309742.5021 9521 9621 16 21
1709309742.5100 9536 9636 15 15
1709309742.5182 9551 9652 15 16
