% Pose without folding and reset (log_20240301_165905.642/log_pose_abs.txt)
% 1 	Time (sec)
% 2,3 	Position x,y (m)
% 4 	heading (rad)
% 5 	Driven distance (m) - signed
% 6 	Turned angle (rad) - signed
1709308746.4653 0.000 0.000 0.0000 0.000 0.0000
1709308746.4736 0.000 0.000 0.0000 0.000 0.0000
1709308746.4809 0.000 0.000 0.0000 0.000 0.0000
1709308746.4886 0.000 0.000 0.0000 0.000 0.0000
1709308746.4967 0.000 0.000 0.0000 0.000 0.0000
1709308746.5048 0.000 0.000 0.0000 0.000 0.0000
1709308746.5124 0.000 0.000 0.0000 0.000 0.0000
1709308746.5206 0.000 0.000 0.0000 0.000 0.0000
1709308746.5282 0.000 0.000 0.0000 0.000 0.0000
1709308746.5360 0.000 0.000 0.0000 0.000 0.0000
1709308746.5447 0.000 0.000 0.0000 0.000 0.0000
1709308746.5521 0.000 0.000 0.0000 0.000 0.0000
1709308746.5601 0.000 0.000 0.0000 0.000 0.0000
1709308746.5685 0.000 0.000 0.0000 0.000 0.0000
1709308746.5759 0.000 0.000 0.0000 0.000 0.0000
1709308746.5846 0.000 0.000 0.0015 0.000 0.0015
1709308746.5928 0.003 0.000 0.0029 0.003 0.0029
1709308746.5999 0.007 0.000 -0.0044 0.007 -0.0044
1709308746.6086 0.008 -0.000 -0.0058 0.008 -0.0058
1709308746.6165 0.009 -0.000 -0.0015 0.009 -0.0015
1709308746.6242 0.011 -0.000 -0.0015 0.011 -0.0015
1709308746.6329 0.014 -0.000 0.0015 0.014 0.0015
1709308746.6410 0.018 0.000 0.0073 0.018 0.0073
1709308746.6491 0.021 0.000 0.0117 0.021 0.0117
1709308746.6567 0.025 0.000 0.0219 0.025 0.0219
1709308746.6646 0.029 0.000 0.0278 0.029 0.0278
1709308746.6723 0.033 0.000 0.0394 0.033 0.0394
1709308746.6810 0.039 0.001 0.0570 0.039 0.0570
1709308746.6882 0.044 0.001 0.0730 0.044 0.0730
1709308746.6964 0.049 0.001 0.0862 0.049 0.0862
1709308746.7052 0.054 0.002 0.0935 0.054 0.0935
1709308746.7124 0.060 0.002 0.1081 0.060 0.1081
1709308746.7214 0.065 0.003 0.1154 0.065 0.1154
1709308746.7284 0.070 0.004 0.1286 0.070 0.1286
1709308746.7367 0.076 0.004 0.1461 0.076 0.1461
1709308746.7451 0.081 0.005 0.1578 0.081 0.1578
1709308746.7528 0.086 0.006 0.1651 0.087 0.1651
1709308746.7610 0.093 0.007 0.1841 0.093 0.1841
1709308746.7682 0.098 0.008 0.2016 0.099 0.2016
1709308746.7767 0.104 0.009 0.2148 0.105 0.2148
1709308746.7850 0.109 0.011 0.2250 0.110 0.2250
1709308746.7921 0.115 0.012 0.2367 0.116 0.2367
1709308746.8010 0.122 0.014 0.2411 0.123 0.2411
1709308746.8082 0.128 0.015 0.2542 0.129 0.2542
1709308746.8164 0.133 0.017 0.2630 0.135 0.2630
1709308746.8250 0.139 0.018 0.2674 0.141 0.2674
1709308746.8322 0.145 0.020 0.2717 0.147 0.2717
1709308746.8403 0.151 0.022 0.2761 0.154 0.2761
1709308746.8491 0.158 0.024 0.2849 0.161 0.2849
1709308746.8562 0.164 0.025 0.2849 0.166 0.2849
1709308746.8648 0.169 0.027 0.2776 0.172 0.2776
1709308746.8722 0.175 0.028 0.2688 0.178 0.2688
1709308746.8805 0.181 0.030 0.2688 0.184 0.2688
1709308746.8886 0.186 0.031 0.2644 0.189 0.2644
1709308746.8971 0.193 0.033 0.2630 0.196 0.2630
1709308746.9042 0.199 0.035 0.2527 0.203 0.2527
1709308746.9125 0.205 0.036 0.2484 0.209 0.2484
1709308746.9208 0.209 0.037 0.2498 0.214 0.2498
1709308746.9288 0.215 0.039 0.2411 0.219 0.2411
1709308746.9368 0.221 0.040 0.2308 0.226 0.2308
1709308746.9445 0.226 0.042 0.2294 0.231 0.2294
1709308746.9526 0.231 0.043 0.2250 0.236 0.2250
1709308746.9604 0.237 0.044 0.2177 0.242 0.2177
1709308746.9692 0.242 0.045 0.2060 0.247 0.2060
1709308746.9767 0.248 0.046 0.2001 0.253 0.2001
1709308746.9851 0.253 0.047 0.1928 0.259 0.1928
1709308746.9924 0.258 0.048 0.1885 0.264 0.1885
1709308747.0012 0.264 0.050 0.1870 0.270 0.1870
1709308747.0086 0.269 0.050 0.1855 0.275 0.1855
1709308747.0164 0.274 0.051 0.1768 0.280 0.1768
1709308747.0241 0.279 0.052 0.1680 0.285 0.1680
1709308747.0324 0.285 0.053 0.1695 0.291 0.1695
1709308747.0403 0.292 0.054 0.1695 0.298 0.1695
1709308747.0484 0.297 0.055 0.1665 0.304 0.1665
1709308747.0566 0.302 0.056 0.1592 0.308 0.1592
1709308747.0652 0.307 0.057 0.1563 0.314 0.1563
1709308747.0730 0.314 0.058 0.1549 0.321 0.1549
1709308747.0802 0.319 0.059 0.1519 0.326 0.1519
1709308747.0891 0.324 0.060 0.1490 0.331 0.1490
1709308747.0963 0.329 0.060 0.1373 0.335 0.1373
1709308747.1050 0.334 0.061 0.1315 0.341 0.1315
1709308747.1130 0.340 0.062 0.1315 0.346 0.1315
1709308747.1211 0.345 0.062 0.1227 0.352 0.1227
1709308747.1284 0.351 0.063 0.1183 0.358 0.1183
1709308747.1371 0.357 0.064 0.1183 0.364 0.1183
1709308747.1445 0.363 0.064 0.1256 0.370 0.1256
1709308747.1528 0.368 0.065 0.1213 0.375 0.1213
1709308747.1608 0.373 0.066 0.1154 0.380 0.1154
1709308747.1690 0.379 0.066 0.1169 0.386 0.1169
1709308747.1770 0.385 0.067 0.1256 0.392 0.1256
1709308747.1847 0.391 0.068 0.1271 0.398 0.1271
1709308747.1929 0.397 0.069 0.1183 0.404 0.1183
1709308747.2009 0.402 0.069 0.1183 0.410 0.1183
1709308747.2082 0.408 0.070 0.1169 0.415 0.1169
1709308747.2163 0.413 0.071 0.1154 0.420 0.1154
1709308747.2245 0.418 0.071 0.1183 0.425 0.1183
1709308747.2322 0.424 0.072 0.1154 0.432 0.1154
1709308747.2404 0.430 0.073 0.1125 0.438 0.1125
1709308747.2485 0.436 0.073 0.1110 0.443 0.1110
1709308747.2566 0.441 0.074 0.1052 0.448 0.1052
1709308747.2648 0.446 0.074 0.1052 0.454 0.1052
1709308747.2726 0.452 0.075 0.1096 0.460 0.1096
1709308747.2803 0.458 0.076 0.1110 0.465 0.1110
1709308747.2884 0.462 0.076 0.1066 0.470 0.1066
1709308747.2969 0.467 0.077 0.1066 0.474 0.1066
1709308747.3047 0.473 0.077 0.1096 0.480 0.1096
1709308747.3128 0.479 0.078 0.1183 0.487 0.1183
1709308747.3217 0.485 0.079 0.1154 0.492 0.1154
1709308747.3284 0.489 0.079 0.1066 0.497 0.1066
1709308747.3364 0.494 0.080 0.1037 0.502 0.1037
1709308747.3446 0.500 0.080 0.1096 0.507 0.1096
1709308747.3523 0.505 0.081 0.1154 0.513 0.1154
1709308747.3604 0.511 0.081 0.1169 0.519 0.1169
1709308747.3687 0.516 0.082 0.1125 0.524 0.1125
1709308747.3771 0.522 0.083 0.1008 0.529 0.1008
1709308747.3852 0.528 0.083 0.1066 0.536 0.1066
1709308747.3922 0.533 0.084 0.1110 0.541 0.1110
1709308747.4003 0.538 0.084 0.1125 0.546 0.1125
1709308747.4085 0.543 0.085 0.1096 0.551 0.1096
1709308747.4168 0.549 0.086 0.1096 0.557 0.1096
1709308747.4250 0.555 0.086 0.1096 0.563 0.1096
1709308747.4332 0.561 0.087 0.1110 0.569 0.1110
1709308747.4403 0.566 0.088 0.1140 0.574 0.1140
1709308747.4482 0.571 0.088 0.1213 0.580 0.1213
1709308747.4570 0.578 0.089 0.1227 0.586 0.1227
1709308747.4652 0.584 0.090 0.1213 0.592 0.1213
1709308747.4726 0.590 0.090 0.1271 0.598 0.1271
1709308747.4807 0.595 0.091 0.1271 0.604 0.1271
1709308747.4890 0.600 0.092 0.1286 0.608 0.1286
1709308747.4972 0.606 0.093 0.1344 0.614 0.1344
1709308747.5043 0.612 0.093 0.1286 0.621 0.1286
1709308747.5126 0.618 0.094 0.1286 0.627 0.1286
1709308747.5210 0.623 0.095 0.1242 0.631 0.1242
1709308747.5288 0.629 0.096 0.1242 0.638 0.1242
1709308747.5371 0.635 0.096 0.1286 0.644 0.1286
1709308747.5443 0.641 0.097 0.1315 0.649 0.1315
1709308747.5524 0.646 0.098 0.1359 0.655 0.1359
1709308747.5605 0.651 0.098 0.1300 0.659 0.1300
1709308747.5682 0.656 0.099 0.1271 0.665 0.1271
1709308747.5770 0.662 0.100 0.1300 0.671 0.1300
1709308747.5851 0.668 0.101 0.1344 0.677 0.1344
1709308747.5930 0.675 0.102 0.1417 0.684 0.1417
1709308747.6011 0.680 0.102 0.1417 0.689 0.1417
1709308747.6092 0.685 0.103 0.1359 0.694 0.1359
1709308747.6169 0.690 0.104 0.1344 0.699 0.1344
1709308747.6245 0.695 0.104 0.1300 0.704 0.1300
1709308747.6327 0.701 0.105 0.1344 0.710 0.1344
1709308747.6404 0.706 0.106 0.1359 0.716 0.1359
1709308747.6485 0.712 0.107 0.1359 0.722 0.1359
1709308747.6565 0.717 0.107 0.1359 0.727 0.1359
1709308747.6642 0.723 0.108 0.1359 0.732 0.1359
1709308747.6731 0.728 0.109 0.1315 0.738 0.1315
1709308747.6803 0.734 0.110 0.1329 0.744 0.1329
1709308747.6890 0.741 0.111 0.1344 0.750 0.1344
1709308747.6970 0.746 0.111 0.1329 0.755 0.1329
1709308747.7051 0.751 0.112 0.1286 0.760 0.1286
1709308747.7128 0.757 0.113 0.1300 0.766 0.1300
1709308747.7216 0.763 0.113 0.1344 0.773 0.1344
