% Pose without folding and reset (log_20240301_170819.927/log_pose_abs.txt)
% 1 	Time (sec)
% 2,3 	Position x,y (m)
% 4 	heading (rad)
% 5 	Driven distance (m) - signed
% 6 	Turned angle (rad) - signed
1709309300.4567 0.000 0.000 0.0000 0.000 0.0000
1709309300.4646 0.000 0.000 0.0000 0.000 0.0000
1709309300.4715 0.000 0.000 0.0000 0.000 0.0000
1709309300.4794 0.000 0.000 0.0000 0.000 0.0000
1709309300.4882 0.000 0.000 0.0000 0.000 0.0000
1709309300.4954 0.000 0.000 0.0000 0.000 0.0000
1709309300.5041 0.000 0.000 0.0000 0.000 0.0000
1709309300.5130 0.000 0.000 0.0000 0.000 0.0000
1709309300.5199 0.000 0.000 0.0000 0.000 0.0000
1709309300.5276 0.000 0.000 0.0000 0.000 0.0000
1709309300.5371 0.000 0.000 0.0000 0.000 0.0000
1709309300.5447 0.000 0.000 0.0000 0.000 0.0000
1709309300.5525 0.000 0.000 0.0000 0.000 0.0000
1709309300.5609 0.000 0.000 0.0000 0.000 0.0000
1709309300.5680 0.000 0.000 0.0000 0.000 0.0000
1709309300.5765 0.000 0.000 0.0000 0.000 0.0000
1709309300.5846 0.002 -0.000 -0.0029 0.002 -0.0029
1709309300.5917 0.005 -0.000 -0.0029 0.005 -0.0029
1709309300.6003 0.008 -0.000 0.0015 0.008 0.0015
1709309300.6084 0.010 -0.000 0.0000 0.010 0.0000
1709309300.6162 0.013 -0.000 -0.0015 0.013 -0.0015
1709309300.6238 0.017 -0.000 0.0000 0.017 0.0000
1709309300.6321 0.022 -0.000 0.0058 0.022 0.0058
1709309300.6405 0.027 0.000 0.0117 0.027 0.0117
1709309300.6483 0.032 0.000 0.0146 0.032 0.0146
1709309300.6565 0.038 0.000 0.0146 0.038 0.0146
1709309300.6644 0.044 0.000 0.0161 0.044 0.0161
1709309300.6722 0.051 0.000 0.0175 0.051 0.0175
1709309300.6805 0.058 0.001 0.0161 0.058 0.0161
1709309300.6876 0.066 0.001 0.0146 0.066 0.0146
1709309300.6963 0.074 0.001 0.0190 0.074 0.0190
1709309300.7045 0.083 0.001 0.0234 0.083 0.0234
1709309300.7124 0.092 0.001 0.0278 0.092 0.0278
1709309300.7203 0.101 0.001 0.0278 0.101 0.0278
1709309300.7285 0.109 0.002 0.0248 0.109 0.0248
1709309300.7357 0.117 0.002 0.0248 0.117 0.0248
1709309300.7445 0.125 0.002 0.0205 0.125 0.0205
1709309300.7517 0.133 0.002 0.0219 0.133 0.0219
1709309300.7599 0.142 0.002 0.0278 0.142 0.0278
1709309300.7684 0.150 0.003 0.0292 0.150 0.0292
1709309300.7767 0.157 0.003 0.0307 0.157 0.0307
1709309300.7838 0.166 0.003 0.0292 0.166 0.0292
1709309300.7925 0.175 0.003 0.0307 0.175 0.0307
1709309300.7997 0.183 0.004 0.0351 0.183 0.0351
1709309300.8079 0.191 0.004 0.0380 0.191 0.0380
1709309300.8163 0.199 0.004 0.0365 0.199 0.0365
1709309300.8244 0.207 0.005 0.0409 0.207 0.0409
1709309300.8324 0.215 0.005 0.0394 0.215 0.0394
1709309300.8401 0.224 0.005 0.0453 0.224 0.0453
1709309300.8482 0.232 0.006 0.0468 0.233 0.0468
1709309300.8565 0.240 0.006 0.0497 0.240 0.0497
1709309300.8637 0.248 0.006 0.0628 0.248 0.0628
1709309300.8720 0.257 0.007 0.0687 0.257 0.0687
1709309300.8801 0.265 0.008 0.0687 0.265 0.0687
1709309300.8879 0.272 0.008 0.0760 0.272 0.0760
1709309300.8961 0.281 0.009 0.0906 0.281 0.0906
1709309300.9043 0.288 0.010 0.0906 0.289 0.0906
1709309300.9127 0.297 0.010 0.0920 0.297 0.0920
1709309300.9206 0.306 0.011 0.1052 0.306 0.1052
1709309300.9277 0.315 0.012 0.1213 0.316 0.1213
1709309300.9365 0.323 0.013 0.1388 0.324 0.1388
1709309300.9447 0.331 0.014 0.1476 0.331 0.1476
1709309300.9518 0.339 0.016 0.1519 0.339 0.1519
1709309300.9607 0.348 0.017 0.1549 0.348 0.1549
1709309300.9683 0.356 0.018 0.1695 0.356 0.1695
1709309300.9765 0.363 0.020 0.1870 0.364 0.1870
1709309300.9844 0.373 0.021 0.1914 0.374 0.1914
1709309300.9922 0.381 0.023 0.1914 0.383 0.1914
1709309301.0004 0.389 0.025 0.1885 0.390 0.1885
1709309301.0076 0.396 0.026 0.2016 0.398 0.2016
1709309301.0163 0.404 0.028 0.2162 0.406 0.2162
1709309301.0245 0.412 0.029 0.2221 0.414 0.2221
1709309301.0322 0.420 0.031 0.2294 0.422 0.2294
1709309301.0403 0.429 0.033 0.2396 0.431 0.2396
1709309301.0485 0.436 0.035 0.2454 0.439 0.2454
1709309301.0561 0.444 0.037 0.2498 0.447 0.2498
1709309301.0639 0.453 0.039 0.2571 0.456 0.2571
1709309301.0721 0.460 0.041 0.2571 0.463 0.2571
1709309301.0805 0.468 0.044 0.2600 0.472 0.2600
1709309301.0877 0.476 0.046 0.2630 0.480 0.2630
1709309301.0959 0.485 0.048 0.2717 0.489 0.2717
1709309301.1045 0.491 0.050 0.2732 0.496 0.2732
1709309301.1122 0.499 0.052 0.2732 0.504 0.2732
1709309301.1204 0.506 0.054 0.2776 0.511 0.2776
1709309301.1281 0.514 0.056 0.2834 0.519 0.2834
1709309301.1364 0.522 0.059 0.2907 0.528 0.2907
1709309301.1437 0.529 0.061 0.2951 0.535 0.2951
1709309301.1522 0.536 0.063 0.3039 0.543 0.3039
1709309301.1606 0.545 0.066 0.3126 0.552 0.3126
1709309301.1684 0.553 0.068 0.3097 0.561 0.3097
1709309301.1763 0.561 0.071 0.3126 0.569 0.3126
1709309301.1837 0.568 0.073 0.3156 0.576 0.3156
1709309301.1920 0.574 0.075 0.3112 0.583 0.3112
1709309301.1997 0.581 0.077 0.3126 0.590 0.3126
1709309301.2079 0.589 0.080 0.3141 0.598 0.3141
1709309301.2156 0.597 0.083 0.3126 0.607 0.3126
1709309301.2243 0.605 0.085 0.3097 0.615 0.3097
1709309301.2325 0.613 0.088 0.3097 0.623 0.3097
1709309301.2404 0.621 0.090 0.3112 0.632 0.3112
1709309301.2480 0.629 0.093 0.3156 0.640 0.3156
1709309301.2561 0.636 0.095 0.3126 0.647 0.3126
1709309301.2639 0.643 0.097 0.3039 0.654 0.3039
1709309301.2727 0.650 0.100 0.3024 0.662 0.3024
1709309301.2809 0.658 0.102 0.3024 0.670 0.3024
1709309301.2881 0.666 0.105 0.3053 0.679 0.3053
1709309301.2963 0.674 0.107 0.2980 0.687 0.2980
1709309301.3043 0.680 0.109 0.2893 0.694 0.2893
1709309301.3125 0.688 0.111 0.2863 0.701 0.2863
1709309301.3202 0.696 0.114 0.2907 0.710 0.2907
1709309301.3282 0.703 0.116 0.2893 0.718 0.2893
1709309301.3365 0.712 0.118 0.2805 0.727 0.2805
1709309301.3441 0.720 0.121 0.2834 0.735 0.2834
1709309301.3523 0.727 0.123 0.2732 0.742 0.2732
1709309301.3605 0.734 0.125 0.2630 0.750 0.2630
1709309301.3679 0.742 0.127 0.2571 0.758 0.2571
1709309301.3759 0.750 0.129 0.2542 0.766 0.2542
1709309301.3842 0.757 0.131 0.2469 0.773 0.2469
1709309301.3921 0.765 0.133 0.2367 0.781 0.2367
1709309301.4004 0.773 0.135 0.2367 0.790 0.2367
1709309301.4080 0.782 0.137 0.2352 0.799 0.2352
1709309301.4163 0.789 0.138 0.2250 0.806 0.2250
1709309301.4245 0.796 0.140 0.2118 0.813 0.2118
1709309301.4318 0.803 0.141 0.2075 0.821 0.2075
1709309301.4398 0.812 0.143 0.2075 0.830 0.2075
1709309301.4481 0.819 0.145 0.1928 0.837 0.1928
1709309301.4564 0.827 0.146 0.1739 0.845 0.1739
1709309301.4638 0.834 0.147 0.1607 0.853 0.1607
1709309301.4721 0.842 0.149 0.1549 0.861 0.1549
1709309301.4804 0.850 0.150 0.1461 0.869 0.1461
1709309301.4878 0.859 0.151 0.1373 0.877 0.1373
1709309301.4962 0.866 0.152 0.1198 0.885 0.1198
1709309301.5046 0.874 0.153 0.1081 0.892 0.1081
1709309301.5119 0.882 0.154 0.1154 0.901 0.1154
1709309301.5201 0.890 0.155 0.1052 0.909 0.1052
1709309301.5284 0.897 0.155 0.0906 0.916 0.0906
1709309301.5363 0.905 0.156 0.0818 0.924 0.0818
1709309301.5444 0.913 0.157 0.0730 0.932 0.0730
1709309301.5526 0.921 0.157 0.0584 0.940 0.0584
1709309301.5604 0.930 0.158 0.0511 0.949 0.0511
1709309301.5682 0.939 0.158 0.0541 0.958 0.0541
1709309301.5763 0.947 0.159 0.0394 0.966 0.0394
1709309301.5841 0.954 0.159 0.0263 0.973 0.0263
1709309301.5923 0.962 0.159 0.0190 0.981 0.0190
1709309301.6005 0.970 0.159 0.0146 0.989 0.0146
1709309301.6082 0.978 0.159 0.0161 0.997 0.0161
1709309301.6160 0.988 0.159 0.0161 1.007 0.0161
1709309301.6243 0.995 0.159 0.0073 1.014 0.0073
1709309301.6320 1.001 0.160 -0.0058 1.020 -0.0058
1709309301.6411 1.009 0.159 -0.0102 1.028 -0.0102
1709309301.6484 1.018 0.159 -0.0088 1.037 -0.0088
1709309301.6567 1.027 0.159 -0.0015 1.046 -0.0015
1709309301.6644 1.034 0.159 -0.0073 1.053 -0.0073
1709309301.6717 1.042 0.159 -0.0073 1.061 -0.0073
1709309301.6807 1.050 0.159 -0.0029 1.069 -0.0029
1709309301.6878 1.058 0.159 0.0015 1.077 0.0015
1709309301.6961 1.066 0.159 0.0058 1.085 0.0058
1709309301.7040 1.073 0.159 0.0044 1.092 0.0044
1709309301.7130 1.081 0.159 0.0102 1.100 0.0102
1709309301.7205 1.089 0.159 0.0146 1.108 0.0146
1709309301.7284 1.097 0.160 0.0248 1.116 0.0248
1709309301.7365 1.105 0.160 0.0278 1.124 0.0278
1709309301.7438 1.113 0.160 0.0365 1.132 0.0365
1709309301.7516 1.120 0.160 0.0409 1.139 0.0409
1709309301.7598 1.128 0.161 0.0453 1.147 0.0453
1709309301.7687 1.136 0.161 0.0526 1.155 0.0526
1709309301.7762 1.144 0.161 0.0687 1.163 0.0687
1709309301.7844 1.151 0.162 0.0847 1.170 0.0847
1709309301.7926 1.161 0.163 0.0993 1.180 0.0993
1709309301.7998 1.169 0.164 0.1096 1.188 0.1096
1709309301.8082 1.177 0.165 0.1213 1.196 0.1213
1709309301.8161 1.184 0.166 0.1329 1.203 0.1329
1709309301.8238 1.191 0.167 0.1432 1.211 0.1432
1709309301.8320 1.199 0.168 0.1534 1.218 0.1534
1709309301.8402 1.206 0.169 0.1622 1.226 0.1622
1709309301.8480 1.214 0.170 0.1753 1.233 0.1753
1709309301.8563 1.221 0.172 0.1855 1.241 0.1855
1709309301.8642 1.230 0.173 0.2001 1.250 0.2001
1709309301.8717 1.238 0.175 0.2133 1.258 0.2133
1709309301.8800 1.245 0.177 0.2250 1.266 0.2250
1709309301.8882 1.253 0.178 0.2411 1.274 0.2411
1709309301.8960 1.262 0.181 0.2586 1.283 0.2586
1709309301.9042 1.270 0.183 0.2659 1.291 0.2659
1709309301.9120 1.277 0.185 0.2747 1.298 0.2747
1709309301.9198 1.285 0.187 0.2907 1.306 0.2907
1709309301.9280 1.293 0.189 0.3039 1.315 0.3039
1709309301.9364 1.300 0.192 0.3156 1.323 0.3156
1709309301.9442 1.308 0.195 0.3273 1.331 0.3273
1709309301.9524 1.316 0.197 0.3316 1.340 0.3316
1709309301.9606 1.324 0.200 0.3433 1.348 0.3433
1709309301.9681 1.331 0.202 0.3550 1.355 0.3550
1709309301.9763 1.338 0.205 0.3594 1.363 0.3594
1709309301.9847 1.347 0.208 0.3652 1.372 0.3652
1709309301.9919 1.354 0.211 0.3740 1.380 0.3740
1709309302.0010 1.361 0.214 0.3901 1.388 0.3901
1709309302.0076 1.368 0.217 0.4003 1.395 0.4003
1709309302.0163 1.375 0.220 0.4032 1.403 0.4032
1709309302.0237 1.382 0.223 0.4032 1.410 0.4032
1709309302.0320 1.390 0.227 0.4105 1.419 0.4105
1709309302.0398 1.398 0.230 0.4149 1.427 0.4149
1709309302.0479 1.405 0.233 0.4164 1.435 0.4164
1709309302.0561 1.412 0.236 0.4120 1.442 0.4120
1709309302.0638 1.419 0.239 0.4134 1.450 0.4134
1709309302.0721 1.427 0.243 0.4208 1.459 0.4208
1709309302.0804 1.434 0.246 0.4251 1.467 0.4251
1709309302.0883 1.441 0.249 0.4178 1.474 0.4178
1709309302.0963 1.449 0.252 0.4178 1.483 0.4178
1709309302.1046 1.457 0.256 0.4208 1.492 0.4208
1709309302.1130 1.464 0.259 0.4208 1.500 0.4208
1709309302.1202 1.471 0.262 0.4134 1.507 0.4134
1709309302.1284 1.478 0.266 0.4120 1.516 0.4120
1709309302.1361 1.486 0.269 0.4061 1.523 0.4061
1709309302.1443 1.493 0.272 0.3959 1.531 0.3959
1709309302.1516 1.499 0.275 0.3886 1.538 0.3886
1709309302.1605 1.506 0.277 0.3784 1.546 0.3784
1709309302.1684 1.513 0.280 0.3711 1.553 0.3711
1709309302.1757 1.521 0.283 0.3609 1.562 0.3609
1709309302.1845 1.530 0.286 0.3521 1.571 0.3521
1709309302.1918 1.537 0.289 0.3462 1.579 0.3462
1709309302.2002 1.544 0.291 0.3287 1.586 0.3287
1709309302.2080 1.551 0.294 0.3126 1.593 0.3126
1709309302.2159 1.558 0.296 0.2922 1.601 0.2922
1709309302.2241 1.566 0.298 0.2761 1.609 0.2761
1709309302.2317 1.574 0.300 0.2600 1.617 0.2600
1709309302.2399 1.581 0.302 0.2454 1.625 0.2454
1709309302.2481 1.588 0.304 0.2294 1.632 0.2294
1709309302.2558 1.595 0.306 0.2177 1.639 0.2177
1709309302.2647 1.604 0.307 0.2031 1.648 0.2031
1709309302.2716 1.612 0.309 0.1885 1.656 0.1885
1709309302.2805 1.620 0.310 0.1680 1.664 0.1680
1709309302.2887 1.627 0.312 0.1563 1.672 0.1563
1709309302.2958 1.635 0.313 0.1417 1.680 0.1417
1709309302.3036 1.644 0.314 0.1300 1.689 0.1300
1709309302.3125 1.651 0.315 0.1125 1.696 0.1125
1709309302.3205 1.658 0.316 0.0877 1.703 0.0877
1709309302.3285 1.667 0.316 0.0701 1.712 0.0701
1709309302.3360 1.675 0.317 0.0643 1.720 0.0643
1709309302.3443 1.683 0.317 0.0482 1.728 0.0482
1709309302.3521 1.691 0.318 0.0278 1.735 0.0278
1709309302.3612 1.699 0.318 0.0175 1.743 0.0175
1709309302.3680 1.707 0.318 -0.0015 1.752 -0.0015
1709309302.3758 1.717 0.318 -0.0131 1.761 -0.0131
1709309302.3841 1.723 0.318 -0.0292 1.768 -0.0292
1709309302.3924 1.730 0.317 -0.0424 1.775 -0.0424
1709309302.4002 1.739 0.317 -0.0468 1.784 -0.0468
1709309302.4082 1.748 0.317 -0.0599 1.793 -0.0599
1709309302.4161 1.756 0.316 -0.0687 1.801 -0.0687
1709309302.4239 1.763 0.315 -0.0760 1.808 -0.0760
1709309302.4322 1.770 0.315 -0.0862 1.815 -0.0862
1709309302.4406 1.778 0.314 -0.1023 1.823 -0.1023
1709309302.4484 1.787 0.313 -0.1023 1.832 -0.1023
1709309302.4564 1.796 0.312 -0.0979 1.841 -0.0979
1709309302.4645 1.804 0.311 -0.0979 1.849 -0.0979
1709309302.4723 1.812 0.311 -0.1037 1.858 -0.1037
1709309302.4805 1.821 0.310 -0.1096 1.866 -0.1096
1709309302.4885 1.829 0.309 -0.1125 1.874 -0.1125
1709309302.4961 1.837 0.308 -0.1169 1.882 -0.1169
1709309302.5044 1.845 0.307 -0.1110 1.890 -0.1110
1709309302.5125 1.852 0.306 -0.1169 1.898 -0.1169
1709309302.5204 1.861 0.305 -0.1183 1.906 -0.1183
1709309302.5277 1.869 0.304 -0.1198 1.914 -0.1198
1709309302.5360 1.877 0.303 -0.1125 1.922 -0.1125
1709309302.5439 1.884 0.303 -0.1110 1.929 -0.1110
1709309302.5523 1.892 0.302 -0.1081 1.938 -0.1081
1709309302.5598 1.899 0.301 -0.1037 1.945 -0.1037
1709309302.5686 1.907 0.300 -0.0964 1.953 -0.0964
1709309302.5759 1.915 0.299 -0.0877 1.960 -0.0877
1709309302.5843 1.924 0.299 -0.0745 1.970 -0.0745
1709309302.5924 1.932 0.298 -0.0672 1.978 -0.0672
1709309302.5998 1.938 0.298 -0.0570 1.984 -0.0570
1709309302.6082 1.946 0.297 -0.0468 1.992 -0.0468
1709309302.6158 1.954 0.297 -0.0365 2.000 -0.0365
1709309302.6241 1.962 0.297 -0.0234 2.008 -0.0234
1709309302.6323 1.969 0.297 -0.0102 2.015 -0.0102
1709309302.6403 1.977 0.297 0.0015 2.023 0.0015
1709309302.6487 1.985 0.297 0.0219 2.031 0.0219
1709309302.6560 1.993 0.297 0.0424 2.039 0.0424
1709309302.6646 2.002 0.297 0.0555 2.048 0.0555
1709309302.6727 2.010 0.298 0.0716 2.056 0.0716
1709309302.6796 2.018 0.298 0.0891 2.063 0.0891
1709309302.6886 2.025 0.299 0.1125 2.071 0.1125
1709309302.6958 2.033 0.300 0.1403 2.079 0.1403
1709309302.7040 2.043 0.302 0.1695 2.089 0.1695
1709309302.7125 2.051 0.303 0.1870 2.097 0.1870
1709309302.7216 2.057 0.304 0.1987 2.104 0.1987
1709309302.7279 2.065 0.306 0.2162 2.112 0.2162
1709309302.7360 2.072 0.308 0.2323 2.119 0.2323
1709309302.7443 2.079 0.309 0.2542 2.126 0.2542
1709309302.7525 2.087 0.312 0.2805 2.134 0.2805
1709309302.7602 2.095 0.314 0.2937 2.143 0.2937
1709309302.7677 2.104 0.317 0.3068 2.152 0.3068
1709309302.7759 2.111 0.319 0.3258 2.159 0.3258
1709309302.7847 2.117 0.321 0.3433 2.166 0.3433
1709309302.7917 2.125 0.324 0.3594 2.174 0.3594
1709309302.7999 2.133 0.327 0.3769 2.183 0.3769
1709309302.8079 2.141 0.330 0.3945 2.191 0.3945
1709309302.8165 2.148 0.333 0.4134 2.199 0.4134
1709309302.8237 2.155 0.336 0.4237 2.206 0.4237
1709309302.8325 2.162 0.340 0.4368 2.214 0.4368
1709309302.8407 2.169 0.343 0.4514 2.222 0.4514
1709309302.8478 2.177 0.347 0.4748 2.231 0.4748
1709309302.8564 2.184 0.351 0.4865 2.240 0.4865
1709309302.8642 2.190 0.354 0.4865 2.246 0.4865
1709309302.8723 2.197 0.357 0.5011 2.253 0.5011
1709309302.8800 2.204 0.361 0.5201 2.262 0.5201
1709309302.8882 2.211 0.366 0.5245 2.270 0.5245
1709309302.8964 2.218 0.370 0.5289 2.278 0.5289
1709309302.9040 2.226 0.374 0.5303 2.287 0.5303
1709309302.9131 2.233 0.378 0.5420 2.295 0.5420
1709309302.9203 2.240 0.383 0.5493 2.303 0.5493
1709309302.9280 2.247 0.387 0.5522 2.311 0.5522
1709309302.9362 2.253 0.391 0.5508 2.319 0.5508
1709309302.9445 2.259 0.395 0.5508 2.326 0.5508
1709309302.9521 2.267 0.399 0.5493 2.335 0.5493
1709309302.9606 2.274 0.403 0.5420 2.343 0.5420
1709309302.9684 2.281 0.408 0.5449 2.351 0.5449
1709309302.9762 2.287 0.412 0.5435 2.359 0.5435
1709309302.9843 2.293 0.415 0.5347 2.366 0.5347
1709309302.9923 2.300 0.419 0.5128 2.374 0.5128
1709309303.0006 2.307 0.423 0.5055 2.382 0.5055
1709309303.0079 2.315 0.427 0.4982 2.390 0.4982
1709309303.0157 2.321 0.431 0.4880 2.398 0.4880
1709309303.0245 2.327 0.434 0.4748 2.405 0.4748
1709309303.0326 2.334 0.437 0.4587 2.412 0.4587
1709309303.0407 2.341 0.441 0.4412 2.420 0.4412
1709309303.0484 2.349 0.444 0.4164 2.429 0.4164
1709309303.0558 2.356 0.447 0.3959 2.437 0.3959
1709309303.0636 2.363 0.450 0.3842 2.444 0.3842
1709309303.0724 2.370 0.453 0.3682 2.452 0.3682
1709309303.0814 2.378 0.456 0.3448 2.461 0.3448
1709309303.0886 2.386 0.459 0.3199 2.469 0.3199
1709309303.0963 2.394 0.461 0.2980 2.477 0.2980
1709309303.1044 2.402 0.464 0.2703 2.485 0.2703
1709309303.1133 2.409 0.466 0.2440 2.493 0.2440
1709309303.1199 2.418 0.468 0.2250 2.502 0.2250
1709309303.1282 2.426 0.469 0.2075 2.510 0.2075
1709309303.1363 2.433 0.471 0.1855 2.517 0.1855
1709309303.1440 2.439 0.472 0.1651 2.524 0.1651
1709309303.1522 2.446 0.473 0.1446 2.531 0.1446
1709309303.1604 2.454 0.474 0.1242 2.539 0.1242
1709309303.1678 2.463 0.475 0.1052 2.547 0.1052
1709309303.1762 2.470 0.476 0.0862 2.555 0.0862
1709309303.1844 2.477 0.476 0.0716 2.562 0.0716
1709309303.1922 2.486 0.477 0.0482 2.570 0.0482
1709309303.2004 2.494 0.477 0.0161 2.579 0.0161
1709309303.2086 2.503 0.477 -0.0161 2.587 -0.0161
1709309303.2158 2.511 0.477 -0.0453 2.596 -0.0453
1709309303.2241 2.519 0.476 -0.0584 2.604 -0.0584
1709309303.2323 2.526 0.476 -0.0774 2.611 -0.0774
1709309303.2401 2.534 0.475 -0.1008 2.618 -0.1008
1709309303.2483 2.542 0.474 -0.1256 2.627 -0.1256
1709309303.2566 2.551 0.473 -0.1505 2.636 -0.1505
1709309303.2643 2.559 0.472 -0.1782 2.644 -0.1782
1709309303.2725 2.566 0.470 -0.1928 2.651 -0.1928
1709309303.2797 2.574 0.469 -0.2060 2.659 -0.2060
1709309303.2886 2.582 0.467 -0.2148 2.668 -0.2148
1709309303.2957 2.590 0.465 -0.2294 2.676 -0.2294
1709309303.3040 2.598 0.463 -0.2498 2.683 -0.2498
1709309303.3124 2.605 0.461 -0.2644 2.691 -0.2644
1709309303.3207 2.613 0.459 -0.2732 2.699 -0.2732
1709309303.3278 2.621 0.457 -0.2790 2.708 -0.2790
1709309303.3366 2.628 0.455 -0.2951 2.715 -0.2951
1709309303.3438 2.635 0.453 -0.3097 2.723 -0.3097
1709309303.3518 2.642 0.450 -0.3243 2.730 -0.3243
1709309303.3607 2.650 0.448 -0.3316 2.738 -0.3316
1709309303.3677 2.658 0.445 -0.3375 2.747 -0.3375
1709309303.3759 2.666 0.442 -0.3448 2.755 -0.3448
1709309303.3839 2.672 0.440 -0.3535 2.761 -0.3535
1709309303.3928 2.679 0.437 -0.3550 2.769 -0.3550
1709309303.3999 2.688 0.434 -0.3623 2.778 -0.3623
1709309303.4081 2.695 0.431 -0.3711 2.786 -0.3711
1709309303.4160 2.703 0.428 -0.3828 2.794 -0.3828
1709309303.4244 2.709 0.426 -0.3872 2.802 -0.3872
1709309303.4322 2.717 0.423 -0.3857 2.809 -0.3857
1709309303.4413 2.724 0.420 -0.3842 2.818 -0.3842
1709309303.4485 2.732 0.416 -0.3959 2.826 -0.3959
1709309303.4564 2.739 0.413 -0.4061 2.834 -0.4061
1709309303.4642 2.747 0.410 -0.4061 2.842 -0.4061
1709309303.4725 2.754 0.407 -0.4061 2.850 -0.4061
1709309303.4803 2.762 0.404 -0.4047 2.858 -0.4047
1709309303.4881 2.768 0.401 -0.4047 2.865 -0.4047
1709309303.4963 2.775 0.398 -0.4076 2.873 -0.4076
1709309303.5047 2.783 0.394 -0.4061 2.882 -0.4061
1709309303.5125 2.791 0.391 -0.4018 2.890 -0.4018
1709309303.5197 2.799 0.388 -0.3974 2.899 -0.3974
1709309303.5278 2.806 0.385 -0.3886 2.906 -0.3886
1709309303.5359 2.813 0.382 -0.3842 2.914 -0.3842
1709309303.5441 2.820 0.379 -0.3857 2.922 -0.3857
1709309303.5519 2.828 0.376 -0.3769 2.930 -0.3769
1709309303.5601 2.835 0.373 -0.3638 2.938 -0.3638
1709309303.5679 2.843 0.370 -0.3506 2.946 -0.3506
1709309303.5759 2.851 0.367 -0.3433 2.954 -0.3433
1709309303.5842 2.858 0.365 -0.3360 2.962 -0.3360
1709309303.5924 2.866 0.362 -0.3258 2.970 -0.3258
1709309303.6001 2.874 0.360 -0.3126 2.979 -0.3126
1709309303.6084 2.880 0.357 -0.2995 2.985 -0.2995
1709309303.6162 2.888 0.355 -0.2907 2.993 -0.2907
1709309303.6239 2.896 0.353 -0.2732 3.001 -0.2732
1709309303.6320 2.903 0.351 -0.2586 3.010 -0.2586
1709309303.6401 2.912 0.349 -0.2411 3.018 -0.2411
1709309303.6478 2.918 0.347 -0.2162 3.025 -0.2162
1709309303.6560 2.926 0.345 -0.1987 3.033 -0.1987
1709309303.6637 2.934 0.344 -0.1870 3.041 -0.1870
1709309303.6722 2.942 0.343 -0.1607 3.049 -0.1607
1709309303.6803 2.949 0.341 -0.1417 3.056 -0.1417
1709309303.6885 2.957 0.340 -0.1227 3.064 -0.1227
1709309303.6961 2.964 0.340 -0.0979 3.072 -0.0979
1709309303.7043 2.974 0.339 -0.0716 3.081 -0.0716
