% Pose without folding and reset (log_20240301_165928.695/log_pose_abs.txt)
% 1 	Time (sec)
% 2,3 	Position x,y (m)
% 4 	heading (rad)
% 5 	Driven distance (m) - signed
% 6 	Turned angle (rad) - signed
1709308769.4651 0.000 0.000 0.0000 0.000 0.0000
1709308769.4731 0.000 0.000 0.0000 0.000 0.0000
1709308769.4802 0.000 0.000 0.0000 0.000 0.0000
1709308769.4878 0.000 0.000 0.0000 0.000 0.0000
1709308769.4958 0.000 0.000 0.0000 0.000 0.0000
1709308769.5038 0.000 0.000 0.0000 0.000 0.0000
1709308769.5124 0.000 0.000 0.0000 0.000 0.0000
1709308769.5205 0.000 0.000 0.0000 0.000 0.0000
1709308769.5279 0.000 0.000 0.0000 0.000 0.0000
1709308769.5355 0.000 0.000 0.0000 0.000 0.0000
1709308769.5444 0.000 0.000 0.0000 0.000 0.0000
1709308769.5516 0.000 0.000 0.0000 0.000 0.0000
1709308769.5606 0.000 0.000 0.0000 0.000 0.0000
1709308769.5679 0.000 0.000 0.0000 0.000 0.0000
1709308769.5763 0.000 0.000 0.0000 0.000 0.0000
1709308769.5836 0.000 0.000 0.0000 0.000 0.0000
1709308769.5918 0.002 0.000 0.0029 0.002 0.0029
1709308769.6001 0.007 0.000 0.0088 0.007 0.0088
1709308769.6089 0.009 0.000 0.0131 0.009 0.0131
1709308769.6169 0.011 0.000 0.0161 0.011 0.0161
1709308769.6247 0.013 0.000 0.0161 0.013 0.0161
1709308769.6325 0.015 0.000 0.0219 0.015 0.0219
1709308769.6407 0.019 0.000 0.0321 0.019 0.0321
1709308769.6490 0.023 0.000 0.0394 0.023 0.0394
1709308769.6569 0.026 0.001 0.0438 0.026 0.0438
1709308769.6650 0.030 0.001 0.0497 0.030 0.0497
1709308769.6728 0.035 0.001 0.0672 0.035 0.0672
1709308769.6808 0.040 0.001 0.0789 0.040 0.0789
1709308769.6890 0.045 0.002 0.0920 0.045 0.0920
1709308769.6962 0.050 0.002 0.1096 0.050 0.1096
1709308769.7048 0.056 0.003 0.1300 0.056 0.1300
1709308769.7130 0.061 0.004 0.1476 0.061 0.1476
1709308769.7208 0.067 0.005 0.1695 0.067 0.1695
1709308769.7286 0.072 0.006 0.1899 0.073 0.1899
1709308769.7367 0.077 0.007 0.2045 0.078 0.2045
1709308769.7449 0.083 0.008 0.2250 0.084 0.2250
1709308769.7523 0.089 0.009 0.2454 0.089 0.2454
1709308769.7605 0.094 0.011 0.2659 0.095 0.2659
1709308769.7687 0.099 0.012 0.2805 0.100 0.2805
1709308769.7771 0.105 0.014 0.3010 0.106 0.3010
1709308769.7842 0.112 0.016 0.3214 0.113 0.3214
1709308769.7923 0.118 0.018 0.3404 0.120 0.3404
1709308769.8007 0.123 0.020 0.3492 0.125 0.3492
1709308769.8088 0.129 0.022 0.3594 0.132 0.3594
1709308769.8170 0.136 0.025 0.3725 0.139 0.3725
1709308769.8242 0.142 0.027 0.3813 0.146 0.3813
1709308769.8329 0.147 0.029 0.3901 0.151 0.3901
1709308769.8409 0.153 0.032 0.4018 0.157 0.4018
1709308769.8490 0.159 0.034 0.4003 0.164 0.4003
1709308769.8561 0.165 0.037 0.4003 0.170 0.4003
1709308769.8643 0.170 0.039 0.4061 0.176 0.4061
1709308769.8726 0.175 0.041 0.4047 0.181 0.4047
1709308769.8808 0.180 0.043 0.3988 0.187 0.3988
1709308769.8887 0.185 0.045 0.3915 0.192 0.3915
1709308769.8965 0.190 0.047 0.3813 0.198 0.3813
1709308769.9046 0.195 0.050 0.3755 0.204 0.3755
1709308769.9128 0.201 0.052 0.3711 0.209 0.3711
1709308769.9203 0.206 0.054 0.3667 0.215 0.3667
1709308769.9285 0.212 0.056 0.3609 0.221 0.3609
1709308769.9367 0.216 0.057 0.3477 0.226 0.3477
1709308769.9445 0.221 0.059 0.3375 0.231 0.3375
1709308769.9527 0.226 0.061 0.3273 0.236 0.3273
1709308769.9606 0.232 0.063 0.3214 0.242 0.3214
1709308769.9685 0.237 0.065 0.3141 0.248 0.3141
1709308769.9763 0.243 0.066 0.3053 0.254 0.3053
1709308769.9846 0.248 0.068 0.3010 0.260 0.3010
1709308769.9926 0.253 0.070 0.2937 0.265 0.2936
1709308770.0009 0.258 0.071 0.2849 0.270 0.2849
1709308770.0082 0.264 0.073 0.2776 0.276 0.2776
1709308770.0160 0.269 0.074 0.2703 0.282 0.2703
1709308770.0247 0.275 0.076 0.2659 0.287 0.2659
1709308770.0320 0.280 0.077 0.2630 0.293 0.2630
1709308770.0408 0.285 0.078 0.2527 0.298 0.2527
1709308770.0490 0.290 0.080 0.2469 0.303 0.2469
1709308770.0561 0.296 0.081 0.2484 0.309 0.2484
1709308770.0649 0.302 0.083 0.2411 0.315 0.2411
1709308770.0728 0.307 0.084 0.2338 0.321 0.2338
1709308770.0810 0.313 0.085 0.2338 0.326 0.2338
1709308770.0887 0.318 0.087 0.2338 0.332 0.2338
1709308770.0968 0.324 0.088 0.2308 0.338 0.2308
1709308770.1050 0.330 0.089 0.2264 0.344 0.2264
1709308770.1127 0.335 0.091 0.2235 0.349 0.2235
1709308770.1215 0.340 0.092 0.2221 0.354 0.2221
1709308770.1282 0.345 0.093 0.2177 0.360 0.2177
1709308770.1361 0.351 0.094 0.2089 0.365 0.2089
1709308770.1446 0.356 0.095 0.2075 0.371 0.2075
1709308770.1521 0.361 0.096 0.2060 0.376 0.2060
1709308770.1609 0.367 0.098 0.2104 0.382 0.2104
1709308770.1690 0.372 0.099 0.2118 0.387 0.2118
1709308770.1761 0.378 0.100 0.2118 0.393 0.2118
1709308770.1851 0.383 0.101 0.2133 0.399 0.2133
1709308770.1924 0.389 0.102 0.2177 0.405 0.2177
1709308770.2005 0.394 0.103 0.2104 0.410 0.2104
1709308770.2084 0.399 0.104 0.2075 0.414 0.2075
1709308770.2167 0.404 0.106 0.2104 0.420 0.2104
1709308770.2247 0.411 0.107 0.2133 0.427 0.2133
1709308770.2327 0.415 0.108 0.2060 0.432 0.2060
1709308770.2409 0.421 0.109 0.2045 0.437 0.2045
1709308770.2481 0.427 0.110 0.2060 0.443 0.2060
1709308770.2570 0.432 0.111 0.2089 0.449 0.2089
1709308770.2641 0.437 0.113 0.2089 0.454 0.2089
1709308770.2721 0.443 0.114 0.2118 0.460 0.2118
1709308770.2808 0.449 0.115 0.2162 0.466 0.2162
1709308770.2890 0.454 0.116 0.2250 0.471 0.2250
1709308770.2970 0.460 0.118 0.2235 0.477 0.2235
1709308770.3046 0.466 0.119 0.2133 0.483 0.2133
1709308770.3126 0.471 0.120 0.2118 0.488 0.2118
1709308770.3214 0.476 0.121 0.2177 0.494 0.2177
1709308770.3291 0.481 0.122 0.2235 0.499 0.2235
1709308770.3370 0.487 0.123 0.2235 0.505 0.2235
1709308770.3440 0.492 0.125 0.2206 0.510 0.2206
1709308770.3521 0.497 0.126 0.2162 0.515 0.2162
1709308770.3602 0.503 0.127 0.2264 0.521 0.2264
